380.0 6.0977e-05
381.0 4.6285e-05
382.0 4.7745e-05
383.0 9.8640e-05
384.0 9.5572e-05
385.0 1.2689e-04
386.0 1.4118e-04
387.0 1.2009e-04
388.0 1.5933e-04
389.0 2.1006e-04
390.0 2.1824e-04
391.0 2.0421e-04
392.0 2.5234e-04
393.0 2.3295e-04
394.0 2.1438e-04
395.0 2.7900e-04
396.0 2.9045e-04
397.0 3.0556e-04
398.0 2.5478e-04
399.0 2.5159e-04
400.0 3.0962e-04
401.0 3.3102e-04
402.0 3.0148e-04
403.0 3.3280e-04
404.0 4.2985e-04
405.0 6.4146e-04
406.0 6.5655e-04
407.0 5.1132e-04
408.0 4.0735e-04
409.0 4.5591e-04
410.0 5.7062e-04
411.0 7.1948e-04
412.0 7.2606e-04
413.0 7.1159e-04
414.0 7.2695e-04
415.0 6.6097e-04
416.0 6.2072e-04
417.0 7.9127e-04
418.0 8.6832e-04
419.0 8.7574e-04
420.0 9.4570e-04
421.0 1.0190e-03
422.0 1.1216e-03
423.0 1.1452e-03
424.0 9.0692e-04
425.0 7.2600e-04
426.0 6.6963e-04
427.0 6.7989e-04
428.0 5.7949e-04
429.0 5.6435e-04
430.0 5.5060e-04
431.0 5.7552e-04
432.0 5.6093e-04
433.0 5.3544e-04
434.0 5.3411e-04
435.0 7.0971e-04
436.0 1.3577e-03
437.0 1.4033e-03
438.0 1.0540e-03
439.0 7.7256e-04
440.0 7.3205e-04
441.0 7.3272e-04
442.0 6.8669e-04
443.0 7.0880e-04
444.0 7.2443e-04
445.0 6.9845e-04
446.0 7.1090e-04
447.0 6.8360e-04
448.0 6.4816e-04
449.0 6.3543e-04
450.0 6.2779e-04
451.0 6.4891e-04
452.0 6.9250e-04
453.0 7.1987e-04
454.0 7.1589e-04
455.0 7.0590e-04
456.0 7.3857e-04
457.0 7.4100e-04
458.0 7.3500e-04
459.0 7.5741e-04
460.0 7.4907e-04
461.0 7.6538e-04
462.0 6.8789e-04
463.0 6.9028e-04
464.0 6.7036e-04
465.0 6.5160e-04
466.0 6.3871e-04
467.0 6.5855e-04
468.0 7.5020e-04
469.0 7.7848e-04
470.0 7.9363e-04
471.0 8.1171e-04
472.0 7.9904e-04
473.0 8.1389e-04
474.0 7.7346e-04
475.0 7.0190e-04
476.0 6.2069e-04
477.0 5.7686e-04
478.0 5.6359e-04
479.0 5.4929e-04
480.0 5.4174e-04
481.0 5.2685e-04
482.0 5.1193e-04
483.0 5.1557e-04
484.0 5.2073e-04
485.0 5.2490e-04
486.0 5.0515e-04
487.0 5.1896e-04
488.0 5.3499e-04
489.0 5.8406e-04
490.0 5.7968e-04
491.0 5.6962e-04
492.0 5.8717e-04
493.0 6.0931e-04
494.0 6.6982e-04
495.0 6.5227e-04
496.0 6.8128e-04
497.0 7.3169e-04
498.0 9.0312e-04
499.0 1.0377e-03
500.0 1.0190e-03
501.0 9.0277e-04
502.0 7.7316e-04
503.0 7.2412e-04
504.0 7.0128e-04
505.0 7.0892e-04
506.0 6.9468e-04
507.0 6.9130e-04
508.0 6.7729e-04
509.0 6.3355e-04
510.0 5.9401e-04
511.0 5.9925e-04
512.0 6.1651e-04
513.0 6.5235e-04
514.0 6.4441e-04
515.0 6.7477e-04
516.0 7.3978e-04
517.0 7.4349e-04
518.0 7.5233e-04
519.0 7.6756e-04
520.0 7.4607e-04
521.0 7.5114e-04
522.0 7.9141e-04
523.0 8.2397e-04
524.0 8.0749e-04
525.0 7.5300e-04
526.0 7.0859e-04
527.0 6.7527e-04
528.0 6.8720e-04
529.0 6.8250e-04
530.0 7.8327e-04
531.0 9.6714e-04
532.0 1.0023e-03
533.0 1.1373e-03
534.0 1.7301e-03
535.0 3.0708e-03
536.0 4.2458e-03
537.0 5.7973e-03
538.0 6.2602e-03
539.0 6.2654e-03
540.0 5.3181e-03
541.0 4.0764e-03
542.0 2.6782e-03
543.0 1.7962e-03
544.0 1.2714e-03
545.0 1.1509e-03
546.0 2.1618e-03
547.0 2.6897e-03
548.0 2.2024e-03
549.0 1.5636e-03
550.0 1.0399e-03
551.0 8.8715e-04
552.0 8.4967e-04
553.0 8.5853e-04
554.0 8.6002e-04
555.0 8.9494e-04
556.0 8.8647e-04
557.0 8.7809e-04
558.0 8.3917e-04
559.0 8.3373e-04
560.0 8.3704e-04
561.0 8.1169e-04
562.0 8.6484e-04
563.0 9.8879e-04
564.0 1.1238e-03
565.0 1.1839e-03
566.0 1.3150e-03
567.0 1.5842e-03
568.0 2.0625e-03
569.0 2.9149e-03
570.0 3.4072e-03
571.0 2.9892e-03
572.0 2.4248e-03
573.0 1.7671e-03
574.0 1.4736e-03
575.0 1.3578e-03
576.0 1.4264e-03
577.0 1.6321e-03
578.0 1.6834e-03
579.0 1.7608e-03
580.0 1.7100e-03
581.0 1.7424e-03
582.0 1.7732e-03
583.0 1.8939e-03
584.0 2.1265e-03
585.0 2.5356e-03
586.0 3.1991e-03
587.0 4.0485e-03
588.0 4.2701e-03
589.0 3.0304e-03
590.0 1.8823e-03
591.0 1.2713e-03
592.0 1.4643e-03
593.0 2.2081e-03
594.0 2.9762e-03
595.0 3.6720e-03
596.0 4.1674e-03
597.0 4.6433e-03
598.0 4.8349e-03
599.0 5.0909e-03
600.0 5.2017e-03
601.0 5.1850e-03
602.0 5.2203e-03
603.0 5.0818e-03
604.0 5.0111e-03
605.0 4.7723e-03
606.0 4.6483e-03
607.0 4.4808e-03
608.0 4.3507e-03
609.0 4.2173e-03
610.0 4.0370e-03
611.0 3.8525e-03
612.0 3.6823e-03
613.0 3.5317e-03
614.0 3.3963e-03
615.0 3.3673e-03
616.0 3.5380e-03
617.0 3.6178e-03
618.0 3.4270e-03
619.0 3.2186e-03
620.0 3.0017e-03
621.0 2.8227e-03
622.0 2.7190e-03
623.0 2.6476e-03
624.0 2.5325e-03
625.0 2.5029e-03
626.0 2.5343e-03
627.0 2.4592e-03
628.0 2.3981e-03
629.0 2.3260e-03
630.0 2.2220e-03
631.0 2.2166e-03
632.0 2.1364e-03
633.0 2.1085e-03
634.0 2.0637e-03
635.0 2.0069e-03
636.0 1.9863e-03
637.0 2.0249e-03
638.0 1.9652e-03
639.0 1.9333e-03
640.0 1.9530e-03
641.0 1.8752e-03
642.0 1.8882e-03
643.0 1.8924e-03
644.0 1.8255e-03
645.0 1.8147e-03
646.0 1.8180e-03
647.0 1.7938e-03
648.0 1.8234e-03
649.0 1.7513e-03
650.0 1.6876e-03
651.0 1.6675e-03
652.0 1.6247e-03
653.0 1.5741e-03
654.0 1.6287e-03
655.0 1.6822e-03
656.0 1.8524e-03
657.0 1.8072e-03
658.0 1.8532e-03
659.0 1.7787e-03
660.0 1.7640e-03
661.0 1.7999e-03
662.0 1.6492e-03
663.0 1.5934e-03
664.0 1.5250e-03
665.0 1.4848e-03
666.0 1.4885e-03
667.0 1.5177e-03
668.0 1.5839e-03
669.0 1.5814e-03
670.0 1.6523e-03
671.0 1.7338e-03
672.0 1.6920e-03
673.0 1.7534e-03
674.0 1.7517e-03
675.0 1.6399e-03
676.0 1.5679e-03
677.0 1.5580e-03
678.0 1.4941e-03
679.0 1.4626e-03
680.0 1.4080e-03
681.0 1.2873e-03
682.0 1.2406e-03
683.0 1.2043e-03
684.0 1.2105e-03
685.0 1.1475e-03
686.0 1.0868e-03
687.0 1.0412e-03
688.0 9.3598e-04
689.0 8.3923e-04
690.0 8.0920e-04
691.0 7.7446e-04
692.0 7.8165e-04
693.0 7.3321e-04
694.0 7.4169e-04
695.0 7.3720e-04
696.0 7.1674e-04
697.0 7.0454e-04
698.0 7.0892e-04
699.0 6.7520e-04
700.0 6.4814e-04
701.0 6.5391e-04
702.0 6.2261e-04
703.0 6.3672e-04
704.0 6.1878e-04
705.0 6.1083e-04
706.0 5.6837e-04
707.0 5.8268e-04
708.0 5.8290e-04
709.0 5.7702e-04
710.0 5.6114e-04
711.0 5.5365e-04
712.0 5.2422e-04
713.0 5.7021e-04
714.0 5.5405e-04
715.0 5.6505e-04
716.0 5.4709e-04
717.0 5.4195e-04
718.0 5.4936e-04
719.0 5.2946e-04
720.0 5.0967e-04
721.0 5.2519e-04
722.0 5.6339e-04
723.0 5.0274e-04
724.0 5.2680e-04
725.0 5.3123e-04
726.0 5.0418e-04
727.0 5.1353e-04
728.0 5.2669e-04
729.0 4.8825e-04
730.0 5.2717e-04
731.0 5.4360e-04
732.0 5.2538e-04
733.0 4.9911e-04
734.0 4.9577e-04
735.0 5.3036e-04
736.0 4.8302e-04
737.0 5.2620e-04
738.0 5.1421e-04
739.0 4.9581e-04
740.0 5.0929e-04
741.0 5.4224e-04
742.0 5.1798e-04
743.0 5.7301e-04
744.0 5.2405e-04
745.0 5.1800e-04
746.0 5.1232e-04
747.0 4.6287e-04
748.0 4.9864e-04
749.0 4.8349e-04
750.0 5.3375e-04
751.0 4.8728e-04
752.0 5.6613e-04
753.0 5.4236e-04
754.0 5.0802e-04
755.0 5.5963e-04
756.0 5.9341e-04
757.0 5.6834e-04
758.0 6.5035e-04
759.0 5.5775e-04
760.0 5.0038e-04
761.0 5.4891e-04
762.0 4.9317e-04
763.0 4.9668e-04
764.0 4.6652e-04
765.0 5.0376e-04
766.0 5.6483e-04
767.0 8.2566e-04
768.0 7.2927e-04
769.0 6.4539e-04
770.0 6.0981e-04
771.0 6.3490e-04
772.0 5.8865e-04
773.0 5.2690e-04
774.0 4.9447e-04
775.0 5.0184e-04
776.0 4.2402e-04
777.0 5.0995e-04
778.0 4.4184e-04
779.0 4.2411e-04