380.0 9.9674e-06
381.0 2.0690e-05
382.0 1.1544e-05
383.0 2.2974e-05
384.0 0.0000e+00
385.0 0.0000e+00
386.0 5.8406e-06
387.0 6.5419e-06
388.0 4.3119e-06
389.0 7.3822e-06
390.0 0.0000e+00
391.0 2.8796e-06
392.0 2.6205e-06
393.0 0.0000e+00
394.0 0.0000e+00
395.0 0.0000e+00
396.0 0.0000e+00
397.0 0.0000e+00
398.0 0.0000e+00
399.0 0.0000e+00
400.0 1.2238e-05
401.0 9.4400e-08
402.0 5.8424e-06
403.0 3.1473e-05
404.0 8.0487e-04
405.0 2.2078e-03
406.0 1.0569e-03
407.0 2.4768e-04
408.0 2.3467e-04
409.0 1.3422e-04
410.0 2.8281e-05
411.0 1.3045e-05
412.0 0.0000e+00
413.0 0.0000e+00
414.0 6.0830e-06
415.0 2.1874e-06
416.0 2.8610e-06
417.0 0.0000e+00
418.0 7.6357e-06
419.0 6.6622e-06
420.0 0.0000e+00
421.0 0.0000e+00
422.0 3.3478e-06
423.0 5.1577e-06
424.0 0.0000e+00
425.0 0.0000e+00
426.0 7.9595e-06
427.0 1.5849e-05
428.0 4.7857e-06
429.0 0.0000e+00
430.0 4.0720e-08
431.0 0.0000e+00
432.0 0.0000e+00
433.0 1.0832e-05
434.0 6.7509e-05
435.0 8.8807e-04
436.0 3.7958e-03
437.0 2.4268e-03
438.0 6.9573e-04
439.0 9.7765e-05
440.0 2.1712e-05
441.0 1.2919e-05
442.0 4.9783e-06
443.0 6.8954e-06
444.0 3.5125e-06
445.0 0.0000e+00
446.0 5.0077e-06
447.0 9.4011e-06
448.0 1.4822e-06
449.0 3.9863e-06
450.0 1.1539e-05
451.0 4.8707e-06
452.0 0.0000e+00
453.0 0.0000e+00
454.0 0.0000e+00
455.0 1.6398e-06
456.0 1.2195e-06
457.0 1.7729e-06
458.0 2.2041e-06
459.0 2.8128e-07
460.0 0.0000e+00
461.0 1.7331e-05
462.0 5.2576e-06
463.0 0.0000e+00
464.0 7.9799e-06
465.0 9.5496e-07
466.0 3.6586e-06
467.0 8.7534e-06
468.0 1.3197e-05
469.0 4.3877e-06
470.0 4.5636e-06
471.0 0.0000e+00
472.0 8.0761e-06
473.0 1.3726e-05
474.0 9.9194e-06
475.0 1.0086e-06
476.0 1.1361e-05
477.0 1.2042e-05
478.0 1.1885e-05
479.0 2.4674e-05
480.0 3.3026e-05
481.0 4.6960e-05
482.0 8.1266e-05
483.0 1.5268e-04
484.0 2.4777e-04
485.0 3.6783e-04
486.0 5.1218e-04
487.0 6.1725e-04
488.0 6.2491e-04
489.0 5.6452e-04
490.0 4.8204e-04
491.0 4.4138e-04
492.0 4.0634e-04
493.0 3.6080e-04
494.0 3.0367e-04
495.0 2.6751e-04
496.0 2.3755e-04
497.0 2.0851e-04
498.0 1.8422e-04
499.0 1.5741e-04
500.0 1.2965e-04
501.0 1.0412e-04
502.0 8.1690e-05
503.0 6.1153e-05
504.0 5.2589e-05
505.0 3.8093e-05
506.0 2.8516e-05
507.0 2.6887e-05
508.0 1.8907e-05
509.0 1.8789e-05
510.0 1.9804e-05
511.0 1.6877e-05
512.0 1.3199e-05
513.0 1.4196e-05
514.0 1.7378e-05
515.0 8.2446e-06
516.0 6.9694e-06
517.0 9.1087e-06
518.0 1.0573e-05
519.0 9.6584e-06
520.0 5.5592e-06
521.0 8.4038e-06
522.0 5.8165e-06
523.0 9.2938e-06
524.0 5.1151e-06
525.0 6.7159e-06
526.0 4.3360e-06
527.0 9.9360e-06
528.0 1.1291e-05
529.0 1.4144e-05
530.0 1.6186e-05
531.0 2.1238e-05
532.0 2.9560e-05
533.0 8.3497e-05
534.0 1.1787e-04
535.0 1.0428e-04
536.0 1.2672e-04
537.0 2.1085e-04
538.0 3.4539e-04
539.0 4.9991e-04
540.0 8.3090e-04
541.0 1.6922e-03
542.0 2.7006e-03
543.0 2.6200e-03
544.0 2.4317e-03
545.0 2.4948e-03
546.0 4.9259e-03
547.0 4.4002e-03
548.0 2.8237e-03
549.0 1.9411e-03
550.0 1.3084e-03
551.0 9.6626e-04
552.0 7.0439e-04
553.0 5.3299e-04
554.0 4.0215e-04
555.0 2.8416e-04
556.0 2.1135e-04
557.0 1.6359e-04
558.0 1.2463e-04
559.0 9.9941e-05
560.0 8.1609e-05
561.0 7.0566e-05
562.0 6.1750e-05
563.0 6.0395e-05
564.0 5.7532e-05
565.0 5.2765e-05
566.0 4.1654e-05
567.0 5.2076e-05
568.0 4.4519e-05
569.0 4.9217e-05
570.0 3.7170e-05
571.0 2.8681e-05
572.0 2.3573e-05
573.0 2.2914e-05
574.0 2.9290e-05
575.0 3.7551e-05
576.0 1.0725e-04
577.0 5.9222e-04
578.0 4.8049e-04
579.0 7.4007e-04
580.0 7.4784e-04
581.0 6.0276e-04
582.0 5.4614e-04
583.0 5.9744e-04
584.0 6.1661e-04
585.0 6.1177e-04
586.0 5.8944e-04
587.0 8.5749e-04
588.0 9.6861e-04
589.0 6.5479e-04
590.0 5.0579e-04
591.0 4.6411e-04
592.0 5.4355e-04
593.0 8.2909e-04
594.0 8.2090e-04
595.0 5.6631e-04
596.0 4.4542e-04
597.0 3.7457e-04
598.0 3.6759e-04
599.0 5.2340e-04
600.0 6.0772e-04
601.0 5.1312e-04
602.0 3.8508e-04
603.0 2.8273e-04
604.0 2.6409e-04
605.0 2.7257e-04
606.0 3.0357e-04
607.0 3.7985e-04
608.0 5.2031e-04
609.0 8.6168e-04
610.0 1.9652e-03
611.0 6.1047e-03
612.0 8.0000e-03
613.0 5.5554e-03
614.0 4.3130e-03
615.0 3.2066e-03
616.0 2.1369e-03
617.0 1.4032e-03
618.0 9.6717e-04
619.0 6.9740e-04
620.0 5.7667e-04
621.0 5.7879e-04
622.0 5.6806e-04
623.0 6.0369e-04
624.0 6.6436e-04
625.0 6.8598e-04
626.0 7.0904e-04
627.0 7.3080e-04
628.0 6.8850e-04
629.0 6.7851e-04
630.0 8.0796e-04
631.0 1.1602e-03
632.0 9.8989e-04
633.0 5.9767e-04
634.0 3.7445e-04
635.0 2.4067e-04
636.0 1.7173e-04
637.0 1.4694e-04
638.0 1.2354e-04
639.0 1.0715e-04
640.0 1.0380e-04
641.0 9.3976e-05
642.0 9.4119e-05
643.0 9.3586e-05
644.0 1.0429e-04
645.0 1.1140e-04
646.0 9.7527e-05
647.0 9.2894e-05
648.0 1.0408e-04
649.0 1.1478e-04
650.0 2.1000e-04
651.0 3.2209e-04
652.0 2.4688e-04
653.0 2.2670e-04
654.0 1.8681e-04
655.0 1.2257e-04
656.0 1.1842e-04
657.0 9.4361e-05
658.0 1.0247e-04
659.0 9.5298e-05
660.0 8.4479e-05
661.0 8.7096e-05
662.0 1.3565e-04
663.0 2.0374e-04
664.0 1.4743e-04
665.0 1.1167e-04
666.0 8.4894e-05
667.0 7.2842e-05
668.0 5.3197e-05
669.0 6.2728e-05
670.0 3.6479e-05
671.0 4.9119e-05
672.0 4.1452e-05
673.0 5.1890e-05
674.0 4.2744e-05
675.0 2.9799e-05
676.0 2.8352e-05
677.0 4.0220e-05
678.0 3.7960e-05
679.0 5.4971e-05
680.0 4.9369e-05
681.0 7.1784e-05
682.0 4.8132e-05
683.0 3.7587e-05
684.0 3.9428e-05
685.0 5.8092e-05
686.0 7.2150e-05
687.0 1.3747e-04
688.0 1.9329e-04
689.0 1.5996e-04
690.0 1.1152e-04
691.0 6.6747e-05
692.0 4.5884e-05
693.0 7.3856e-05
694.0 1.4287e-04
695.0 8.7790e-05
696.0 5.2200e-05
697.0 3.9250e-05
698.0 2.3757e-05
699.0 1.5157e-05
700.0 1.5014e-05
701.0 1.5425e-05
702.0 1.1115e-05
703.0 2.6031e-05
704.0 6.1548e-05
705.0 1.2319e-04
706.0 2.3564e-04
707.0 4.5155e-04
708.0 4.9279e-04
709.0 6.3116e-04
710.0 5.0189e-04
711.0 3.2786e-04
712.0 4.7568e-04
713.0 4.5357e-04
714.0 2.5459e-04
715.0 1.2762e-04
716.0 6.4964e-05
717.0 1.7698e-05
718.0 6.4661e-06
719.0 0.0000e+00
720.0 0.0000e+00
721.0 0.0000e+00
722.0 8.8456e-07
723.0 5.0596e-06
724.0 0.0000e+00
725.0 1.4379e-05
726.0 0.0000e+00
727.0 0.0000e+00
728.0 0.0000e+00
729.0 0.0000e+00
730.0 0.0000e+00
731.0 0.0000e+00
732.0 0.0000e+00
733.0 0.0000e+00
734.0 0.0000e+00
735.0 0.0000e+00
736.0 0.0000e+00
737.0 0.0000e+00
738.0 0.0000e+00
739.0 0.0000e+00
740.0 0.0000e+00
741.0 0.0000e+00
742.0 0.0000e+00
743.0 5.0596e-06
744.0 0.0000e+00
745.0 0.0000e+00
746.0 0.0000e+00
747.0 6.2199e-06
748.0 0.0000e+00
749.0 0.0000e+00
750.0 0.0000e+00
751.0 0.0000e+00
752.0 0.0000e+00
753.0 0.0000e+00
754.0 0.0000e+00
755.0 0.0000e+00
756.0 0.0000e+00
757.0 0.0000e+00
758.0 0.0000e+00
759.0 0.0000e+00
760.0 0.0000e+00
761.0 0.0000e+00
762.0 0.0000e+00
763.0 0.0000e+00
764.0 0.0000e+00
765.0 0.0000e+00
766.0 0.0000e+00
767.0 0.0000e+00
768.0 0.0000e+00
769.0 0.0000e+00
770.0 0.0000e+00
771.0 0.0000e+00
772.0 0.0000e+00
773.0 0.0000e+00
774.0 0.0000e+00
775.0 0.0000e+00
776.0 0.0000e+00
777.0 0.0000e+00
778.0 0.0000e+00
779.0 0.0000e+00