380.0 8.3687e-05
381.0 5.6509e-05
382.0 5.4512e-05
383.0 4.4737e-05
384.0 6.1693e-05
385.0 6.4041e-05
386.0 5.9765e-05
387.0 6.8137e-05
388.0 6.2640e-05
389.0 6.3774e-05
390.0 7.1432e-05
391.0 6.9058e-05
392.0 6.6244e-05
393.0 4.8602e-05
394.0 5.7565e-05
395.0 7.9191e-05
396.0 6.8700e-05
397.0 8.9465e-05
398.0 6.6753e-05
399.0 9.1002e-05
400.0 1.1582e-04
401.0 1.2960e-04
402.0 1.3167e-04
403.0 1.1106e-04
404.0 1.3956e-04
405.0 1.5400e-04
406.0 1.3296e-04
407.0 1.4463e-04
408.0 1.2630e-04
409.0 1.6313e-04
410.0 1.4011e-04
411.0 1.2761e-04
412.0 1.4787e-04
413.0 1.5145e-04
414.0 1.4417e-04
415.0 1.4519e-04
416.0 1.8082e-04
417.0 1.7001e-04
418.0 1.8466e-04
419.0 1.6707e-04
420.0 1.6335e-04
421.0 1.6787e-04
422.0 2.0881e-04
423.0 1.5593e-04
424.0 1.8157e-04
425.0 1.8067e-04
426.0 1.8105e-04
427.0 1.7760e-04
428.0 1.7647e-04
429.0 1.8917e-04
430.0 1.7513e-04
431.0 1.6595e-04
432.0 2.0825e-04
433.0 2.4301e-04
434.0 2.1856e-04
435.0 2.1178e-04
436.0 2.4432e-04
437.0 2.5027e-04
438.0 2.3848e-04
439.0 2.6462e-04
440.0 2.5426e-04
441.0 2.4292e-04
442.0 2.4945e-04
443.0 2.2013e-04
444.0 2.0992e-04
445.0 2.0471e-04
446.0 2.0285e-04
447.0 2.3067e-04
448.0 2.7092e-04
449.0 3.3352e-04
450.0 4.1954e-04
451.0 4.1202e-04
452.0 3.5082e-04
453.0 2.9246e-04
454.0 2.7824e-04
455.0 2.8617e-04
456.0 2.7156e-04
457.0 2.1979e-04
458.0 2.1600e-04
459.0 2.1226e-04
460.0 2.2845e-04
461.0 2.1121e-04
462.0 2.4711e-04
463.0 2.5944e-04
464.0 2.6702e-04
465.0 3.4199e-04
466.0 4.9390e-04
467.0 7.6437e-04
468.0 7.2500e-04
469.0 5.3468e-04
470.0 3.7497e-04
471.0 3.3041e-04
472.0 2.8492e-04
473.0 2.5937e-04
474.0 2.5183e-04
475.0 3.4559e-04
476.0 3.3894e-04
477.0 2.8805e-04
478.0 2.4747e-04
479.0 2.1485e-04
480.0 2.2695e-04
481.0 2.1567e-04
482.0 2.3297e-04
483.0 2.3229e-04
484.0 2.4466e-04
485.0 2.3889e-04
486.0 2.3649e-04
487.0 2.1542e-04
488.0 2.2935e-04
489.0 2.3792e-04
490.0 2.5450e-04
491.0 2.7734e-04
492.0 2.8642e-04
493.0 2.8141e-04
494.0 2.8648e-04
495.0 3.1316e-04
496.0 3.9741e-04
497.0 7.1653e-04
498.0 1.6869e-03
499.0 1.9132e-03
500.0 1.2622e-03
501.0 7.2179e-04
502.0 4.1957e-04
503.0 3.0611e-04
504.0 2.7619e-04
505.0 2.4888e-04
506.0 2.5157e-04
507.0 2.4977e-04
508.0 2.4770e-04
509.0 2.4671e-04
510.0 2.4759e-04
511.0 2.5860e-04
512.0 2.6536e-04
513.0 2.4922e-04
514.0 2.7676e-04
515.0 5.7429e-04
516.0 6.5893e-04
517.0 4.4304e-04
518.0 3.0771e-04
519.0 2.5151e-04
520.0 2.5152e-04
521.0 2.5215e-04
522.0 2.5038e-04
523.0 2.3985e-04
524.0 2.5213e-04
525.0 2.5627e-04
526.0 2.3823e-04
527.0 2.2407e-04
528.0 2.3157e-04
529.0 2.3216e-04
530.0 2.5180e-04
531.0 2.4373e-04
532.0 2.3860e-04
533.0 2.2927e-04
534.0 2.3834e-04
535.0 2.5583e-04
536.0 2.6748e-04
537.0 2.6799e-04
538.0 2.5317e-04
539.0 2.6932e-04
540.0 2.4498e-04
541.0 2.6068e-04
542.0 2.5326e-04
543.0 2.5619e-04
544.0 2.7100e-04
545.0 2.7839e-04
546.0 3.2210e-04
547.0 3.4248e-04
548.0 3.7861e-04
549.0 4.4302e-04
550.0 5.5564e-04
551.0 6.4967e-04
552.0 7.1081e-04
553.0 7.5796e-04
554.0 7.8048e-04
555.0 7.9199e-04
556.0 8.3737e-04
557.0 8.8732e-04
558.0 9.8925e-04
559.0 1.0836e-03
560.0 1.1728e-03
561.0 1.2334e-03
562.0 1.2393e-03
563.0 1.2876e-03
564.0 1.3177e-03
565.0 1.3850e-03
566.0 1.5967e-03
567.0 2.1697e-03
568.0 3.6960e-03
569.0 5.8687e-03
570.0 4.8110e-03
571.0 3.4644e-03
572.0 2.4745e-03
573.0 2.0356e-03
574.0 1.9453e-03
575.0 1.9953e-03
576.0 2.1352e-03
577.0 2.2815e-03
578.0 2.4617e-03
579.0 2.6466e-03
580.0 2.9069e-03
581.0 3.1837e-03
582.0 3.4823e-03
583.0 3.7157e-03
584.0 3.8571e-03
585.0 3.7896e-03
586.0 3.2966e-03
587.0 2.4244e-03
588.0 1.3928e-03
589.0 7.1542e-04
590.0 4.1967e-04
591.0 5.2823e-04
592.0 1.0856e-03
593.0 2.1632e-03
594.0 3.1556e-03
595.0 3.8937e-03
596.0 4.2574e-03
597.0 4.3330e-03
598.0 4.2464e-03
599.0 4.0477e-03
600.0 3.8147e-03
601.0 3.5654e-03
602.0 3.3166e-03
603.0 3.1207e-03
604.0 2.8880e-03
605.0 2.6819e-03
606.0 2.4947e-03
607.0 2.3726e-03
608.0 2.1969e-03
609.0 2.0613e-03
610.0 1.9249e-03
611.0 1.8483e-03
612.0 1.7337e-03
613.0 1.6709e-03
614.0 1.5880e-03
615.0 1.9461e-03
616.0 2.8120e-03
617.0 2.3295e-03
618.0 1.9491e-03
619.0 1.5893e-03
620.0 1.3600e-03
621.0 1.2903e-03
622.0 1.2218e-03
623.0 1.1794e-03
624.0 1.1216e-03
625.0 1.0981e-03
626.0 1.0635e-03
627.0 1.0558e-03
628.0 9.7339e-04
629.0 9.5216e-04
630.0 9.3141e-04
631.0 8.9997e-04
632.0 9.0833e-04
633.0 8.9417e-04
634.0 8.7026e-04
635.0 8.5995e-04
636.0 8.5816e-04
637.0 8.4441e-04
638.0 8.4185e-04
639.0 8.2080e-04
640.0 8.2074e-04
641.0 8.0728e-04
642.0 8.1219e-04
643.0 7.7345e-04
644.0 7.8306e-04
645.0 7.8554e-04
646.0 7.4641e-04
647.0 7.4476e-04
648.0 7.2605e-04
649.0 7.3721e-04
650.0 7.2460e-04
651.0 7.1394e-04
652.0 7.0189e-04
653.0 7.0163e-04
654.0 6.9247e-04
655.0 6.9899e-04
656.0 6.5330e-04
657.0 6.6419e-04
658.0 6.8118e-04
659.0 7.0183e-04
660.0 7.0245e-04
661.0 7.1329e-04
662.0 6.9783e-04
663.0 6.7728e-04
664.0 6.7855e-04
665.0 6.5189e-04
666.0 6.7452e-04
667.0 6.7802e-04
668.0 6.6085e-04
669.0 6.8589e-04
670.0 7.0305e-04
671.0 7.1291e-04
672.0 7.2160e-04
673.0 7.1425e-04
674.0 7.0017e-04
675.0 6.9496e-04
676.0 6.9762e-04
677.0 7.1907e-04
678.0 6.8756e-04
679.0 7.0412e-04
680.0 6.6227e-04
681.0 6.5555e-04
682.0 6.6156e-04
683.0 6.6380e-04
684.0 6.2667e-04
685.0 6.2407e-04
686.0 6.0844e-04
687.0 4.8822e-04
688.0 4.1328e-04
689.0 3.9372e-04
690.0 4.1519e-04
691.0 4.4109e-04
692.0 4.8957e-04
693.0 5.1147e-04
694.0 4.9537e-04
695.0 4.9515e-04
696.0 5.0557e-04
697.0 5.4222e-04
698.0 5.3875e-04
699.0 5.5726e-04
700.0 5.4763e-04
701.0 5.2764e-04
702.0 5.5271e-04
703.0 5.7720e-04
704.0 5.3839e-04
705.0 5.5369e-04
706.0 5.7177e-04
707.0 5.9295e-04
708.0 5.6382e-04
709.0 5.8540e-04
710.0 6.0140e-04
711.0 5.8120e-04
712.0 5.6718e-04
713.0 5.7599e-04
714.0 6.0002e-04
715.0 5.4716e-04
716.0 5.3737e-04
717.0 4.8245e-04
718.0 4.4157e-04
719.0 4.2280e-04
720.0 3.8230e-04
721.0 4.3926e-04
722.0 4.5939e-04
723.0 4.7367e-04
724.0 4.3226e-04
725.0 4.3028e-04
726.0 4.2703e-04
727.0 4.0307e-04
728.0 4.4098e-04
729.0 4.6836e-04
730.0 4.3734e-04
731.0 4.2044e-04
732.0 4.5836e-04
733.0 4.6188e-04
734.0 4.9433e-04
735.0 5.2021e-04
736.0 5.3579e-04
737.0 5.1877e-04
738.0 6.0551e-04
739.0 5.1762e-04
740.0 5.3909e-04
741.0 5.8746e-04
742.0 5.7682e-04
743.0 5.6606e-04
744.0 5.6767e-04
745.0 5.3661e-04
746.0 5.5577e-04
747.0 5.6440e-04
748.0 5.5596e-04
749.0 5.2567e-04
750.0 5.5118e-04
751.0 5.3918e-04
752.0 5.4645e-04
753.0 5.5565e-04
754.0 5.8411e-04
755.0 5.3862e-04
756.0 5.5978e-04
757.0 5.5240e-04
758.0 5.0126e-04
759.0 4.5426e-04
760.0 3.1017e-04
761.0 2.0993e-04
762.0 1.7972e-04
763.0 2.0792e-04
764.0 1.6539e-04
765.0 2.0177e-04
766.0 5.3952e-04
767.0 7.8741e-04
768.0 6.5000e-04
769.0 7.4114e-04
770.0 9.7601e-04
771.0 7.8204e-04
772.0 7.1830e-04
773.0 6.0077e-04
774.0 5.3661e-04
775.0 5.6157e-04
776.0 5.0668e-04
777.0 5.6373e-04
778.0 5.4517e-04
779.0 5.4503e-04