380.0 9.4102e-06
381.0 7.0397e-06
382.0 1.0489e-05
383.0 8.4564e-06
384.0 7.5354e-06
385.0 9.1688e-06
386.0 9.7782e-06
387.0 5.9690e-06
388.0 9.3548e-06
389.0 9.2089e-06
390.0 4.9187e-06
391.0 1.1174e-05
392.0 7.9030e-06
393.0 1.1122e-05
394.0 8.4778e-06
395.0 3.8419e-06
396.0 8.0137e-06
397.0 9.7039e-06
398.0 5.7628e-06
399.0 7.5778e-06
400.0 4.7894e-06
401.0 8.2149e-06
402.0 5.7608e-06
403.0 8.0474e-06
404.0 7.9500e-06
405.0 4.5225e-06
406.0 6.5158e-06
407.0 8.2938e-06
408.0 9.2318e-06
409.0 1.1264e-05
410.0 9.5373e-06
411.0 9.4865e-06
412.0 8.6531e-06
413.0 8.1837e-06
414.0 5.2538e-06
415.0 6.5348e-06
416.0 7.5705e-06
417.0 1.0357e-05
418.0 7.1865e-06
419.0 6.5517e-06
420.0 3.3430e-06
421.0 9.9422e-06
422.0 8.0970e-06
423.0 9.3678e-06
424.0 8.6011e-06
425.0 9.5710e-06
426.0 1.0095e-05
427.0 8.9693e-06
428.0 5.8521e-06
429.0 7.1795e-06
430.0 1.0002e-05
431.0 8.4970e-06
432.0 6.0550e-06
433.0 7.6163e-06
434.0 1.0265e-05
435.0 4.0499e-06
436.0 7.4499e-06
437.0 9.7018e-06
438.0 9.2730e-06
439.0 1.0685e-05
440.0 9.7831e-06
441.0 1.0101e-05
442.0 8.7309e-06
443.0 1.0683e-05
444.0 8.3001e-06
445.0 9.4334e-06
446.0 8.2826e-06
447.0 1.2399e-05
448.0 8.5701e-06
449.0 8.1275e-06
450.0 9.7330e-06
451.0 9.0874e-06
452.0 5.7643e-06
453.0 8.1816e-06
454.0 7.8889e-06
455.0 1.1971e-05
456.0 1.0717e-05
457.0 6.9505e-06
458.0 1.1185e-05
459.0 9.6205e-06
460.0 5.9339e-06
461.0 1.0259e-05
462.0 1.1670e-05
463.0 9.8458e-06
464.0 1.1336e-05
465.0 7.8260e-06
466.0 1.0798e-05
467.0 1.1656e-05
468.0 1.0945e-05
469.0 1.0266e-05
470.0 1.0851e-05
471.0 8.8594e-06
472.0 1.0864e-05
473.0 1.0226e-05
474.0 1.0723e-05
475.0 8.1461e-06
476.0 8.8370e-06
477.0 9.9934e-06
478.0 8.1320e-06
479.0 9.4872e-06
480.0 8.7037e-06
481.0 1.0952e-05
482.0 1.0833e-05
483.0 9.6387e-06
484.0 1.0728e-05
485.0 9.4159e-06
486.0 1.0105e-05
487.0 9.8039e-06
488.0 8.3881e-06
489.0 1.0867e-05
490.0 9.6550e-06
491.0 1.0759e-05
492.0 9.4654e-06
493.0 1.0772e-05
494.0 1.0202e-05
495.0 1.0092e-05
496.0 1.1003e-05
497.0 1.0619e-05
498.0 1.0137e-05
499.0 9.3834e-06
500.0 1.2686e-05
501.0 1.1994e-05
502.0 1.0945e-05
503.0 1.1896e-05
504.0 1.0573e-05
505.0 1.0092e-05
506.0 1.0649e-05
507.0 1.1005e-05
508.0 1.0694e-05
509.0 1.0657e-05
510.0 1.1163e-05
511.0 1.1627e-05
512.0 1.1046e-05
513.0 9.9738e-06
514.0 1.3496e-05
515.0 1.0354e-05
516.0 1.2172e-05
517.0 1.1422e-05
518.0 1.3479e-05
519.0 1.2078e-05
520.0 1.4280e-05
521.0 1.0525e-05
522.0 1.3336e-05
523.0 1.2048e-05
524.0 1.2309e-05
525.0 1.2294e-05
526.0 1.3162e-05
527.0 1.2528e-05
528.0 1.2067e-05
529.0 1.3038e-05
530.0 1.3767e-05
531.0 1.4871e-05
532.0 1.2896e-05
533.0 1.3296e-05
534.0 1.2609e-05
535.0 1.3997e-05
536.0 1.5737e-05
537.0 1.2543e-05
538.0 1.5198e-05
539.0 1.4376e-05
540.0 1.3404e-05
541.0 1.5212e-05
542.0 1.4834e-05
543.0 1.4996e-05
544.0 1.5558e-05
545.0 1.4968e-05
546.0 1.5710e-05
547.0 1.4228e-05
548.0 1.5983e-05
549.0 1.5366e-05
550.0 1.7537e-05
551.0 1.7857e-05
552.0 1.6853e-05
553.0 1.6910e-05
554.0 1.7165e-05
555.0 1.8587e-05
556.0 1.8712e-05
557.0 1.9519e-05
558.0 2.0311e-05
559.0 1.9174e-05
560.0 1.7577e-05
561.0 1.9320e-05
562.0 2.0579e-05
563.0 2.0049e-05
564.0 1.9987e-05
565.0 2.2011e-05
566.0 2.2656e-05
567.0 2.3464e-05
568.0 2.0925e-05
569.0 2.4162e-05
570.0 2.4280e-05
571.0 2.7193e-05
572.0 2.6170e-05
573.0 2.8140e-05
574.0 2.7162e-05
575.0 2.7829e-05
576.0 3.1249e-05
577.0 3.3208e-05
578.0 3.4579e-05
579.0 3.5748e-05
580.0 4.1054e-05
581.0 4.0820e-05
582.0 4.7189e-05
583.0 4.6538e-05
584.0 5.3242e-05
585.0 5.2971e-05
586.0 5.9304e-05
587.0 6.2995e-05
588.0 6.6526e-05
589.0 7.0864e-05
590.0 7.5486e-05
591.0 7.9538e-05
592.0 8.6642e-05
593.0 9.3182e-05
594.0 1.0065e-04
595.0 1.0898e-04
596.0 1.1451e-04
597.0 1.2217e-04
598.0 1.3695e-04
599.0 1.4338e-04
600.0 1.5669e-04
601.0 1.6483e-04
602.0 1.7459e-04
603.0 1.8418e-04
604.0 1.9949e-04
605.0 2.1310e-04
606.0 2.2409e-04
607.0 2.3174e-04
608.0 2.5034e-04
609.0 2.5685e-04
610.0 2.7346e-04
611.0 2.8451e-04
612.0 3.0765e-04
613.0 3.2690e-04
614.0 3.3533e-04
615.0 3.5678e-04
616.0 3.8005e-04
617.0 3.9019e-04
618.0 4.1188e-04
619.0 4.2671e-04
620.0 4.5132e-04
621.0 4.7517e-04
622.0 4.9139e-04
623.0 4.9542e-04
624.0 5.2416e-04
625.0 5.4936e-04
626.0 5.6562e-04
627.0 5.8386e-04
628.0 6.1265e-04
629.0 6.2504e-04
630.0 6.4045e-04
631.0 6.6734e-04
632.0 6.8375e-04
633.0 7.1351e-04
634.0 7.3442e-04
635.0 7.4747e-04
636.0 7.7190e-04
637.0 8.0282e-04
638.0 8.2009e-04
639.0 8.4951e-04
640.0 8.7213e-04
641.0 8.9231e-04
642.0 9.1897e-04
643.0 9.3758e-04
644.0 9.6245e-04
645.0 9.8772e-04
646.0 1.0166e-03
647.0 1.0460e-03
648.0 1.0680e-03
649.0 1.1013e-03
650.0 1.1219e-03
651.0 1.1445e-03
652.0 1.1862e-03
653.0 1.1915e-03
654.0 1.2286e-03
655.0 1.2737e-03
656.0 1.2720e-03
657.0 1.3175e-03
658.0 1.3414e-03
659.0 1.3738e-03
660.0 1.4168e-03
661.0 1.4512e-03
662.0 1.4832e-03
663.0 1.5079e-03
664.0 1.5310e-03
665.0 1.5783e-03
666.0 1.6123e-03
667.0 1.6449e-03
668.0 1.6702e-03
669.0 1.7053e-03
670.0 1.7569e-03
671.0 1.8016e-03
672.0 1.8207e-03
673.0 1.8756e-03
674.0 1.9058e-03
675.0 1.9452e-03
676.0 1.9946e-03
677.0 2.0418e-03
678.0 2.0624e-03
679.0 2.1127e-03
680.0 2.1707e-03
681.0 2.2023e-03
682.0 2.2179e-03
683.0 2.2835e-03
684.0 2.3275e-03
685.0 2.3631e-03
686.0 2.4037e-03
687.0 2.4391e-03
688.0 2.4730e-03
689.0 2.5245e-03
690.0 2.5739e-03
691.0 2.6526e-03
692.0 2.6833e-03
693.0 2.7470e-03
694.0 2.7854e-03
695.0 2.8242e-03
696.0 2.8781e-03
697.0 2.9148e-03
698.0 2.9826e-03
699.0 3.0342e-03
700.0 3.0977e-03
701.0 3.1689e-03
702.0 3.2127e-03
703.0 3.3043e-03
704.0 3.3293e-03
705.0 3.3366e-03
706.0 3.3866e-03
707.0 3.4274e-03
708.0 3.5054e-03
709.0 3.5841e-03
710.0 3.6353e-03
711.0 3.7046e-03
712.0 3.7344e-03
713.0 3.7377e-03
714.0 3.8296e-03
715.0 3.8652e-03
716.0 3.9166e-03
717.0 3.9674e-03
718.0 4.0272e-03
719.0 4.0756e-03
720.0 4.1586e-03
721.0 4.1810e-03
722.0 4.2676e-03
723.0 4.3051e-03
724.0 4.3524e-03
725.0 4.4042e-03
726.0 4.4329e-03
727.0 4.4889e-03
728.0 4.5335e-03
729.0 4.6187e-03
730.0 4.6054e-03
731.0 4.6621e-03
732.0 4.7126e-03
733.0 4.7524e-03
734.0 4.7330e-03
735.0 4.8175e-03
736.0 4.8515e-03
737.0 4.9041e-03
738.0 4.9523e-03
739.0 4.9571e-03
740.0 5.0485e-03
741.0 5.0674e-03
742.0 5.1123e-03
743.0 5.0926e-03
744.0 5.1371e-03
745.0 5.0991e-03
746.0 5.1007e-03
747.0 5.0959e-03
748.0 5.1404e-03
749.0 5.1892e-03
750.0 5.1985e-03
751.0 5.2448e-03
752.0 5.3006e-03
753.0 5.2728e-03
754.0 5.3439e-03
755.0 5.3729e-03
756.0 5.4130e-03
757.0 5.4310e-03
758.0 5.5217e-03
759.0 5.5187e-03
760.0 5.5587e-03
761.0 5.6293e-03
762.0 5.6423e-03
763.0 5.6368e-03
764.0 5.6467e-03
765.0 5.6551e-03
766.0 5.6677e-03
767.0 5.6599e-03
768.0 5.7109e-03
769.0 5.7171e-03
770.0 5.6789e-03
771.0 5.6790e-03
772.0 5.7292e-03
773.0 5.7141e-03
774.0 5.7466e-03
775.0 5.8429e-03
776.0 5.7869e-03
777.0 5.8400e-03
778.0 5.8850e-03
779.0 5.8520e-03
