380.0 1.0969e-05
381.0 0.0000e+00
382.0 5.1328e-06
383.0 6.0574e-06
384.0 0.0000e+00
385.0 5.4742e-06
386.0 6.6569e-06
387.0 1.4792e-05
388.0 8.6776e-06
389.0 0.0000e+00
390.0 1.6320e-05
391.0 1.0889e-05
392.0 2.0334e-05
393.0 6.8686e-06
394.0 1.2941e-05
395.0 9.1588e-06
396.0 2.9552e-05
397.0 1.3686e-05
398.0 1.9281e-05
399.0 3.2989e-06
400.0 1.5146e-05
401.0 2.9947e-05
402.0 3.5515e-05
403.0 4.2633e-05
404.0 5.2290e-05
405.0 4.9802e-05
406.0 6.1784e-05
407.0 6.2390e-05
408.0 7.6091e-05
409.0 8.0672e-05
410.0 9.9309e-05
411.0 1.0267e-04
412.0 1.3886e-04
413.0 1.6819e-04
414.0 1.8767e-04
415.0 2.3798e-04
416.0 2.7266e-04
417.0 3.3753e-04
418.0 3.7221e-04
419.0 4.1438e-04
420.0 4.7803e-04
421.0 5.5761e-04
422.0 6.5142e-04
423.0 7.3117e-04
424.0 8.5272e-04
425.0 9.3499e-04
426.0 1.0546e-03
427.0 1.1925e-03
428.0 1.3421e-03
429.0 1.4943e-03
430.0 1.6898e-03
431.0 1.8912e-03
432.0 2.0469e-03
433.0 2.2839e-03
434.0 2.4950e-03
435.0 2.7878e-03
436.0 3.0180e-03
437.0 3.3074e-03
438.0 3.6738e-03
439.0 4.0735e-03
440.0 4.4183e-03
441.0 4.8315e-03
442.0 5.2636e-03
443.0 5.7790e-03
444.0 6.1997e-03
445.0 6.6385e-03
446.0 7.0194e-03
447.0 7.3890e-03
448.0 7.7246e-03
449.0 7.9871e-03
450.0 7.9933e-03
451.0 8.0000e-03
452.0 7.8802e-03
453.0 7.5830e-03
454.0 7.3087e-03
455.0 6.9161e-03
456.0 6.4132e-03
457.0 5.9623e-03
458.0 5.5073e-03
459.0 5.0494e-03
460.0 4.6757e-03
461.0 4.2521e-03
462.0 3.9366e-03
463.0 3.5620e-03
464.0 3.3584e-03
465.0 3.0879e-03
466.0 2.8086e-03
467.0 2.6540e-03
468.0 2.4477e-03
469.0 2.2617e-03
470.0 2.0685e-03
471.0 1.9260e-03
472.0 1.7687e-03
473.0 1.6446e-03
474.0 1.4888e-03
475.0 1.3938e-03
476.0 1.3020e-03
477.0 1.2045e-03
478.0 1.1069e-03
479.0 1.0235e-03
480.0 9.9117e-04
481.0 9.2871e-04
482.0 8.9338e-04
483.0 8.5506e-04
484.0 8.2018e-04
485.0 8.1339e-04
486.0 7.7290e-04
487.0 7.5390e-04
488.0 7.3904e-04
489.0 7.3681e-04
490.0 7.3946e-04
491.0 7.4905e-04
492.0 7.6059e-04
493.0 7.7486e-04
494.0 7.9600e-04
495.0 8.3495e-04
496.0 8.6309e-04
497.0 9.1973e-04
498.0 9.7304e-04
499.0 1.0151e-03
500.0 1.0727e-03
501.0 1.1443e-03
502.0 1.1960e-03
503.0 1.2960e-03
504.0 1.3575e-03
505.0 1.4466e-03
506.0 1.5050e-03
507.0 1.6170e-03
508.0 1.7114e-03
509.0 1.8155e-03
510.0 1.8944e-03
511.0 2.0174e-03
512.0 2.1120e-03
513.0 2.1765e-03
514.0 2.2904e-03
515.0 2.3820e-03
516.0 2.4725e-03
517.0 2.5458e-03
518.0 2.6088e-03
519.0 2.7155e-03
520.0 2.7646e-03
521.0 2.8356e-03
522.0 2.9174e-03
523.0 2.9813e-03
524.0 3.0659e-03
525.0 3.1035e-03
526.0 3.1554e-03
527.0 3.2463e-03
528.0 3.2852e-03
529.0 3.3242e-03
530.0 3.3596e-03
531.0 3.3902e-03
532.0 3.4154e-03
533.0 3.4566e-03
534.0 3.4474e-03
535.0 3.4879e-03
536.0 3.4789e-03
537.0 3.5281e-03
538.0 3.5333e-03
539.0 3.5829e-03
540.0 3.5882e-03
541.0 3.6239e-03
542.0 3.5992e-03
543.0 3.6372e-03
544.0 3.6295e-03
545.0 3.6409e-03
546.0 3.6088e-03
547.0 3.6379e-03
548.0 3.6531e-03
549.0 3.6538e-03
550.0 3.6319e-03
551.0 3.6406e-03
552.0 3.6627e-03
553.0 3.6636e-03
554.0 3.6476e-03
555.0 3.6699e-03
556.0 3.6929e-03
557.0 3.6681e-03
558.0 3.6756e-03
559.0 3.6545e-03
560.0 3.6697e-03
561.0 3.6711e-03
562.0 3.6560e-03
563.0 3.6738e-03
564.0 3.6471e-03
565.0 3.6468e-03
566.0 3.6792e-03
567.0 3.6414e-03
568.0 3.6313e-03
569.0 3.6262e-03
570.0 3.5569e-03
571.0 3.5376e-03
572.0 3.5250e-03
573.0 3.5385e-03
574.0 3.4924e-03
575.0 3.4882e-03
576.0 3.4610e-03
577.0 3.4510e-03
578.0 3.4312e-03
579.0 3.3656e-03
580.0 3.3356e-03
581.0 3.3337e-03
582.0 3.3048e-03
583.0 3.2838e-03
584.0 3.2782e-03
585.0 3.3118e-03
586.0 3.2574e-03
587.0 3.2345e-03
588.0 3.2024e-03
589.0 3.1595e-03
590.0 3.1687e-03
591.0 3.1156e-03
592.0 3.0761e-03
593.0 3.0438e-03
594.0 3.0130e-03
595.0 2.9594e-03
596.0 2.9581e-03
597.0 2.9199e-03
598.0 2.8838e-03
599.0 2.8658e-03
600.0 2.8169e-03
601.0 2.7962e-03
602.0 2.7922e-03
603.0 2.7439e-03
604.0 2.6962e-03
605.0 2.6500e-03
606.0 2.6154e-03
607.0 2.5551e-03
608.0 2.5157e-03
609.0 2.4583e-03
610.0 2.4383e-03
611.0 2.4087e-03
612.0 2.3606e-03
613.0 2.3501e-03
614.0 2.3282e-03
615.0 2.2938e-03
616.0 2.2562e-03
617.0 2.2686e-03
618.0 2.2331e-03
619.0 2.1899e-03
620.0 2.1392e-03
621.0 2.1110e-03
622.0 2.0539e-03
623.0 2.0145e-03
624.0 2.0238e-03
625.0 1.9734e-03
626.0 1.9427e-03
627.0 1.8962e-03
628.0 1.8637e-03
629.0 1.8338e-03
630.0 1.7797e-03
631.0 1.7572e-03
632.0 1.6997e-03
633.0 1.6711e-03
634.0 1.6448e-03
635.0 1.5949e-03
636.0 1.5540e-03
637.0 1.5605e-03
638.0 1.5150e-03
639.0 1.4848e-03
640.0 1.4477e-03
641.0 1.4123e-03
642.0 1.3872e-03
643.0 1.3575e-03
644.0 1.3365e-03
645.0 1.3165e-03
646.0 1.2869e-03
647.0 1.2612e-03
648.0 1.2283e-03
649.0 1.1932e-03
650.0 1.1880e-03
651.0 1.1499e-03
652.0 1.1168e-03
653.0 1.1142e-03
654.0 1.0610e-03
655.0 1.0380e-03
656.0 1.0184e-03
657.0 9.8461e-04
658.0 9.9479e-04
659.0 9.5381e-04
660.0 9.2456e-04
661.0 9.0699e-04
662.0 8.8753e-04
663.0 8.9067e-04
664.0 8.5350e-04
665.0 8.2836e-04
666.0 7.9680e-04
667.0 7.9021e-04
668.0 7.5532e-04
669.0 7.5351e-04
670.0 7.3908e-04
671.0 7.2621e-04
672.0 7.0030e-04
673.0 6.8367e-04
674.0 6.6446e-04
675.0 6.5922e-04
676.0 6.4634e-04
677.0 6.2818e-04
678.0 6.0747e-04
679.0 5.8735e-04
680.0 5.8346e-04
681.0 5.4720e-04
682.0 5.3397e-04
683.0 5.3256e-04
684.0 5.1827e-04
685.0 5.2291e-04
686.0 5.0399e-04
687.0 4.7732e-04
688.0 4.7190e-04
689.0 4.4664e-04
690.0 4.4643e-04
691.0 4.3011e-04
692.0 4.3277e-04
693.0 4.2547e-04
694.0 3.9778e-04
695.0 3.9848e-04
696.0 3.8251e-04
697.0 3.7864e-04
698.0 3.5754e-04
699.0 3.4647e-04
700.0 3.4791e-04
701.0 3.3208e-04
702.0 3.4507e-04
703.0 3.2080e-04
704.0 3.1165e-04
705.0 3.1221e-04
706.0 3.0954e-04
707.0 2.7119e-04
708.0 2.7740e-04
709.0 2.8429e-04
710.0 2.9298e-04
711.0 2.6762e-04
712.0 2.4368e-04
713.0 2.4509e-04
714.0 2.2670e-04
715.0 2.2783e-04
716.0 2.3265e-04
717.0 2.2997e-04
718.0 2.2717e-04
719.0 2.0802e-04
720.0 2.0183e-04
721.0 1.8668e-04
722.0 2.0759e-04
723.0 1.8893e-04
724.0 1.8880e-04
725.0 1.8404e-04
726.0 1.6365e-04
727.0 1.9680e-04
728.0 1.6615e-04
729.0 1.6960e-04
730.0 1.5651e-04
731.0 1.4089e-04
732.0 1.4479e-04
733.0 1.4506e-04
734.0 1.2971e-04
735.0 1.3221e-04
736.0 1.2460e-04
737.0 1.3696e-04
738.0 1.1679e-04
739.0 1.0781e-04
740.0 1.2417e-04
741.0 1.0629e-04
742.0 1.1365e-04
743.0 1.1335e-04
744.0 1.1601e-04
745.0 9.7584e-05
746.0 1.0671e-04
747.0 8.4770e-05
748.0 9.6248e-05
749.0 9.0307e-05
750.0 9.4036e-05
751.0 7.3301e-05
752.0 7.6588e-05
753.0 9.1443e-05
754.0 7.9126e-05
755.0 6.5486e-05
756.0 8.4483e-05
757.0 8.5922e-05
758.0 7.8906e-05
759.0 5.9768e-05
760.0 6.2244e-05
761.0 4.5729e-05
762.0 4.9066e-05
763.0 4.7114e-05
764.0 5.7951e-05
765.0 8.9352e-05
766.0 8.5471e-05
767.0 4.1257e-05
768.0 4.8791e-05
769.0 3.7994e-05
770.0 5.2761e-05
771.0 5.6887e-05
772.0 6.7029e-05
773.0 5.5953e-05
774.0 7.2762e-05
775.0 6.3435e-05
776.0 7.8058e-05
777.0 2.4709e-05
778.0 2.4673e-05
779.0 3.6220e-05
